# NIST ASTAR table for Photographic Emulsion (matno=215)
# Particle: alpha
# Source:   https://physics.nist.gov/PhysRefData/Star/Text/ASTAR.html
# Underlying physics: ICRU Report 49 (proton) / ICRU 49 + 73 (alpha)
# Density [g/cm^3]: 3.81500
# Mean excitation energy I [eV]: 331.000
# Composition (weight fraction): H=0.014100, C=0.072261, N=0.019320, O=0.066101, S=0.001890, Br=0.349103, Ag=0.474105, I=0.003120
# Fetched: 2026-06-09 via scripts/fetch_nist_emulsion.py
# Columns: T_MeV, S_elec_MeV_cm2_per_g, S_nuc_MeV_cm2_per_g, S_total_MeV_cm2_per_g, R_csda_g_per_cm2, R_proj_g_per_cm2, detour_factor
T_MeV,S_elec_MeV_cm2_per_g,S_nuc_MeV_cm2_per_g,S_total_MeV_cm2_per_g,R_csda_g_per_cm2,R_proj_g_per_cm2,detour_factor
1.000000e-03,4.669000e+01,5.085000e+01,9.754000e+01,1.271000e-05,3.397000e-06,2.673000e-01
1.500000e-03,5.718000e+01,4.832000e+01,1.055000e+02,1.761000e-05,4.835000e-06,2.746000e-01
2.000000e-03,6.606000e+01,4.597000e+01,1.120000e+02,2.221000e-05,6.265000e-06,2.821000e-01
2.500000e-03,7.391000e+01,4.389000e+01,1.178000e+02,2.656000e-05,7.687000e-06,2.895000e-01
3.000000e-03,8.104000e+01,4.204000e+01,1.231000e+02,3.071000e-05,9.106000e-06,2.965000e-01
4.000000e-03,9.375000e+01,3.892000e+01,1.327000e+02,3.853000e-05,1.194000e-05,3.099000e-01
5.000000e-03,1.050000e+02,3.638000e+01,1.414000e+02,4.582000e-05,1.477000e-05,3.222000e-01
6.000000e-03,1.152000e+02,3.426000e+01,1.495000e+02,5.270000e-05,1.758000e-05,3.337000e-01
7.000000e-03,1.247000e+02,3.246000e+01,1.571000e+02,5.922000e-05,2.039000e-05,3.443000e-01
8.000000e-03,1.335000e+02,3.089000e+01,1.644000e+02,6.544000e-05,2.319000e-05,3.543000e-01
9.000000e-03,1.418000e+02,2.952000e+01,1.713000e+02,7.140000e-05,2.597000e-05,3.637000e-01
1.000000e-02,1.496000e+02,2.830000e+01,1.779000e+02,7.713000e-05,2.874000e-05,3.726000e-01
1.250000e-02,1.678000e+02,2.576000e+01,1.936000e+02,9.059000e-05,3.558000e-05,3.928000e-01
1.500000e-02,1.843000e+02,2.375000e+01,2.081000e+02,1.030000e-04,4.231000e-05,4.107000e-01
1.750000e-02,1.996000e+02,2.210000e+01,2.217000e+02,1.147000e-04,4.893000e-05,4.267000e-01
2.000000e-02,2.138000e+02,2.072000e+01,2.346000e+02,1.256000e-04,5.543000e-05,4.412000e-01
2.250000e-02,2.273000e+02,1.954000e+01,2.468000e+02,1.360000e-04,6.182000e-05,4.545000e-01
2.500000e-02,2.400000e+02,1.851000e+01,2.585000e+02,1.459000e-04,6.810000e-05,4.667000e-01
2.750000e-02,2.521000e+02,1.761000e+01,2.698000e+02,1.554000e-04,7.428000e-05,4.780000e-01
3.000000e-02,2.638000e+02,1.681000e+01,2.806000e+02,1.645000e-04,8.035000e-05,4.886000e-01
3.500000e-02,2.857000e+02,1.545000e+01,3.012000e+02,1.817000e-04,9.220000e-05,5.076000e-01
4.000000e-02,3.062000e+02,1.432000e+01,3.205000e+02,1.977000e-04,1.037000e-04,5.243000e-01
4.500000e-02,3.254000e+02,1.338000e+01,3.388000e+02,2.129000e-04,1.148000e-04,5.393000e-01
5.000000e-02,3.436000e+02,1.257000e+01,3.562000e+02,2.273000e-04,1.257000e-04,5.529000e-01
5.500000e-02,3.610000e+02,1.187000e+01,3.728000e+02,2.410000e-04,1.362000e-04,5.652000e-01
6.000000e-02,3.775000e+02,1.125000e+01,3.888000e+02,2.541000e-04,1.465000e-04,5.764000e-01
6.500000e-02,3.934000e+02,1.071000e+01,4.041000e+02,2.668000e-04,1.565000e-04,5.868000e-01
7.000000e-02,4.087000e+02,1.022000e+01,4.189000e+02,2.789000e-04,1.663000e-04,5.964000e-01
7.500000e-02,4.233000e+02,9.782000e+00,4.331000e+02,2.906000e-04,1.759000e-04,6.053000e-01
8.000000e-02,4.375000e+02,9.385000e+00,4.469000e+02,3.020000e-04,1.853000e-04,6.136000e-01
8.500000e-02,4.512000e+02,9.022000e+00,4.602000e+02,3.130000e-04,1.945000e-04,6.213000e-01
9.000000e-02,4.645000e+02,8.691000e+00,4.731000e+02,3.237000e-04,2.035000e-04,6.286000e-01
9.500000e-02,4.773000e+02,8.386000e+00,4.857000e+02,3.342000e-04,2.124000e-04,6.355000e-01
1.000000e-01,4.898000e+02,8.105000e+00,4.979000e+02,3.443000e-04,2.211000e-04,6.420000e-01
1.250000e-01,5.470000e+02,6.968000e+00,5.540000e+02,3.919000e-04,2.625000e-04,6.697000e-01
1.500000e-01,5.973000e+02,6.139000e+00,6.034000e+02,4.351000e-04,3.010000e-04,6.918000e-01
1.750000e-01,6.417000e+02,5.503000e+00,6.472000e+02,4.750000e-04,3.372000e-04,7.099000e-01
2.000000e-01,6.812000e+02,4.999000e+00,6.862000e+02,5.125000e-04,3.717000e-04,7.252000e-01
2.250000e-01,7.163000e+02,4.587000e+00,7.209000e+02,5.480000e-04,4.047000e-04,7.384000e-01
2.500000e-01,7.476000e+02,4.245000e+00,7.519000e+02,5.820000e-04,4.364000e-04,7.499000e-01
2.750000e-01,7.755000e+02,3.954000e+00,7.794000e+02,6.146000e-04,4.671000e-04,7.601000e-01
3.000000e-01,8.002000e+02,3.705000e+00,8.039000e+02,6.462000e-04,4.970000e-04,7.692000e-01
3.500000e-01,8.415000e+02,3.296000e+00,8.448000e+02,7.068000e-04,5.548000e-04,7.849000e-01
4.000000e-01,8.735000e+02,2.976000e+00,8.764000e+02,7.648000e-04,6.105000e-04,7.982000e-01
4.500000e-01,8.978000e+02,2.717000e+00,9.005000e+02,8.211000e-04,6.647000e-04,8.095000e-01
5.000000e-01,9.158000e+02,2.503000e+00,9.183000e+02,8.760000e-04,7.179000e-04,8.195000e-01
5.500000e-01,9.286000e+02,2.323000e+00,9.309000e+02,9.301000e-04,7.704000e-04,8.283000e-01
6.000000e-01,9.371000e+02,2.169000e+00,9.393000e+02,9.836000e-04,8.225000e-04,8.362000e-01
6.500000e-01,9.400000e+02,2.036000e+00,9.420000e+02,1.037000e-03,8.743000e-04,8.434000e-01
7.000000e-01,9.384000e+02,1.919000e+00,9.404000e+02,1.090000e-03,9.262000e-04,8.499000e-01
7.500000e-01,9.338000e+02,1.816000e+00,9.356000e+02,1.143000e-03,9.784000e-04,8.559000e-01
8.000000e-01,9.270000e+02,1.725000e+00,9.287000e+02,1.197000e-03,1.031000e-03,8.615000e-01
8.500000e-01,9.186000e+02,1.643000e+00,9.203000e+02,1.251000e-03,1.084000e-03,8.667000e-01
9.000000e-01,9.092000e+02,1.569000e+00,9.108000e+02,1.305000e-03,1.138000e-03,8.716000e-01
9.500000e-01,8.991000e+02,1.502000e+00,9.006000e+02,1.361000e-03,1.192000e-03,8.761000e-01
1.000000e+00,8.885000e+02,1.440000e+00,8.899000e+02,1.416000e-03,1.247000e-03,8.804000e-01
1.250000e+00,8.337000e+02,1.201000e+00,8.349000e+02,1.706000e-03,1.533000e-03,8.983000e-01
1.500000e+00,7.818000e+02,1.033000e+00,7.828000e+02,2.016000e-03,1.839000e-03,9.121000e-01
1.750000e+00,7.351000e+02,9.095000e-01,7.360000e+02,2.345000e-03,2.165000e-03,9.230000e-01
2.000000e+00,6.937000e+02,8.138000e-01,6.945000e+02,2.695000e-03,2.511000e-03,9.318000e-01
2.250000e+00,6.571000e+02,7.374000e-01,6.578000e+02,3.065000e-03,2.878000e-03,9.390000e-01
2.500000e+00,6.246000e+02,6.750000e-01,6.252000e+02,3.455000e-03,3.265000e-03,9.450000e-01
2.750000e+00,5.955000e+02,6.229000e-01,5.962000e+02,3.865000e-03,3.672000e-03,9.501000e-01
3.000000e+00,5.695000e+02,5.787000e-01,5.700000e+02,4.294000e-03,4.098000e-03,9.544000e-01
3.500000e+00,5.245000e+02,5.078000e-01,5.250000e+02,5.209000e-03,5.007000e-03,9.612000e-01
4.000000e+00,4.872000e+02,4.532000e-01,4.876000e+02,6.198000e-03,5.990000e-03,9.664000e-01
4.500000e+00,4.556000e+02,4.098000e-01,4.560000e+02,7.259000e-03,7.045000e-03,9.705000e-01
5.000000e+00,4.285000e+02,3.745000e-01,4.289000e+02,8.390000e-03,8.170000e-03,9.737000e-01
5.500000e+00,4.049000e+02,3.450000e-01,4.052000e+02,9.590000e-03,9.363000e-03,9.764000e-01
6.000000e+00,3.839000e+02,3.201000e-01,3.842000e+02,1.086000e-02,1.062000e-02,9.785000e-01
6.500000e+00,3.652000e+02,2.987000e-01,3.655000e+02,1.219000e-02,1.195000e-02,9.804000e-01
7.000000e+00,3.486000e+02,2.802000e-01,3.488000e+02,1.359000e-02,1.335000e-02,9.819000e-01
7.500000e+00,3.338000e+02,2.639000e-01,3.341000e+02,1.506000e-02,1.481000e-02,9.832000e-01
8.000000e+00,3.205000e+02,2.496000e-01,3.207000e+02,1.659000e-02,1.633000e-02,9.843000e-01
8.500000e+00,3.083000e+02,2.368000e-01,3.086000e+02,1.818000e-02,1.791000e-02,9.853000e-01
9.000000e+00,2.972000e+02,2.253000e-01,2.974000e+02,1.983000e-02,1.955000e-02,9.862000e-01
9.500000e+00,2.870000e+02,2.149000e-01,2.873000e+02,2.154000e-02,2.126000e-02,9.869000e-01
1.000000e+01,2.778000e+02,2.055000e-01,2.780000e+02,2.331000e-02,2.302000e-02,9.876000e-01
1.250000e+01,2.400000e+02,1.691000e-01,2.402000e+02,3.301000e-02,3.269000e-02,9.901000e-01
1.500000e+01,2.125000e+02,1.441000e-01,2.126000e+02,4.410000e-02,4.373000e-02,9.916000e-01
1.750000e+01,1.914000e+02,1.257000e-01,1.915000e+02,5.651000e-02,5.610000e-02,9.927000e-01
2.000000e+01,1.746000e+02,1.117000e-01,1.747000e+02,7.020000e-02,6.974000e-02,9.934000e-01
2.500000e+01,1.494000e+02,9.167000e-02,1.495000e+02,1.013000e-01,1.007000e-01,9.944000e-01
2.750000e+01,1.396000e+02,8.421000e-02,1.397000e+02,1.186000e-01,1.179000e-01,9.947000e-01
3.000000e+01,1.312000e+02,7.792000e-02,1.313000e+02,1.370000e-01,1.364000e-01,9.950000e-01
3.500000e+01,1.175000e+02,6.788000e-02,1.175000e+02,1.774000e-01,1.766000e-01,9.955000e-01
4.000000e+01,1.066000e+02,6.022000e-02,1.067000e+02,2.221000e-01,2.211000e-01,9.958000e-01
4.500000e+01,9.781000e+01,5.417000e-02,9.786000e+01,2.711000e-01,2.700000e-01,9.960000e-01
5.000000e+01,9.051000e+01,4.926000e-02,9.056000e+01,3.242000e-01,3.230000e-01,9.962000e-01
5.500000e+01,8.434000e+01,4.520000e-02,8.439000e+01,3.815000e-01,3.801000e-01,9.963000e-01
6.000000e+01,7.906000e+01,4.177000e-02,7.910000e+01,4.427000e-01,4.411000e-01,9.965000e-01
6.500000e+01,7.448000e+01,3.885000e-02,7.452000e+01,5.079000e-01,5.061000e-01,9.966000e-01
7.000000e+01,7.046000e+01,3.632000e-02,7.050000e+01,5.769000e-01,5.750000e-01,9.967000e-01
7.500000e+01,6.690000e+01,3.411000e-02,6.694000e+01,6.497000e-01,6.476000e-01,9.967000e-01
8.000000e+01,6.373000e+01,3.216000e-02,6.376000e+01,7.263000e-01,7.239000e-01,9.968000e-01
8.500000e+01,6.089000e+01,3.043000e-02,6.092000e+01,8.065000e-01,8.040000e-01,9.969000e-01
9.000000e+01,5.831000e+01,2.888000e-02,5.834000e+01,8.904000e-01,8.877000e-01,9.969000e-01
9.500000e+01,5.598000e+01,2.749000e-02,5.601000e+01,9.779000e-01,9.749000e-01,9.970000e-01
1.000000e+02,5.385000e+01,2.623000e-02,5.387000e+01,1.069000e+00,1.066000e+00,9.970000e-01
1.250000e+02,4.547000e+01,2.137000e-02,4.549000e+01,1.576000e+00,1.572000e+00,9.972000e-01
1.500000e+02,3.960000e+01,1.806000e-02,3.961000e+01,2.167000e+00,2.161000e+00,9.973000e-01
1.750000e+02,3.524000e+01,1.565000e-02,3.525000e+01,2.837000e+00,2.830000e+00,9.974000e-01
2.000000e+02,3.186000e+01,1.383000e-02,3.187000e+01,3.584000e+00,3.575000e+00,9.975000e-01
2.250000e+02,2.917000e+01,1.239000e-02,2.918000e+01,4.405000e+00,4.394000e+00,9.975000e-01
2.500000e+02,2.696000e+01,1.123000e-02,2.697000e+01,5.297000e+00,5.284000e+00,9.976000e-01
2.750000e+02,2.512000e+01,1.027000e-02,2.513000e+01,6.258000e+00,6.243000e+00,9.976000e-01
3.000000e+02,2.356000e+01,9.464000e-03,2.357000e+01,7.286000e+00,7.269000e+00,9.977000e-01
3.500000e+02,2.106000e+01,8.183000e-03,2.107000e+01,9.534000e+00,9.513000e+00,9.977000e-01
4.000000e+02,1.914000e+01,7.213000e-03,1.914000e+01,1.203000e+01,1.200000e+01,9.978000e-01
4.500000e+02,1.761000e+01,6.450000e-03,1.762000e+01,1.475000e+01,1.472000e+01,9.978000e-01
5.000000e+02,1.637000e+01,5.835000e-03,1.637000e+01,1.770000e+01,1.766000e+01,9.979000e-01
5.500000e+02,1.534000e+01,5.329000e-03,1.534000e+01,2.086000e+01,2.081000e+01,9.979000e-01
6.000000e+02,1.447000e+01,4.904000e-03,1.447000e+01,2.422000e+01,2.417000e+01,9.979000e-01
6.500000e+02,1.373000e+01,4.542000e-03,1.373000e+01,2.776000e+01,2.771000e+01,9.980000e-01
7.000000e+02,1.308000e+01,4.230000e-03,1.309000e+01,3.150000e+01,3.143000e+01,9.980000e-01
7.500000e+02,1.252000e+01,3.959000e-03,1.253000e+01,3.540000e+01,3.533000e+01,9.980000e-01
8.000000e+02,1.203000e+01,3.720000e-03,1.203000e+01,3.947000e+01,3.940000e+01,9.981000e-01
8.500000e+02,1.159000e+01,3.508000e-03,1.160000e+01,4.371000e+01,4.363000e+01,9.981000e-01
9.000000e+02,1.120000e+01,3.320000e-03,1.120000e+01,4.810000e+01,4.801000e+01,9.981000e-01
9.500000e+02,1.085000e+01,3.151000e-03,1.085000e+01,5.263000e+01,5.253000e+01,9.981000e-01
1.000000e+03,1.053000e+01,2.998000e-03,1.053000e+01,5.731000e+01,5.720000e+01,9.982000e-01
